I_abs(s)[cm^-1]/c[mg/ml]
  0.000000E+00  0.189447E+00
  0.784314E-02  0.187049E+00
  0.156863E-01  0.180186E+00
  0.235294E-01  0.169185E+00
  0.313725E-01  0.154925E+00
  0.392157E-01  0.138307E+00
  0.470588E-01  0.120358E+00
  0.549020E-01  0.102077E+00
  0.627451E-01  0.843646E-01
  0.705882E-01  0.679448E-01
  0.784314E-01  0.533326E-01
  0.862745E-01  0.408225E-01
  0.941176E-01  0.305053E-01
  0.101961E+00  0.223009E-01
  0.109804E+00  0.160072E-01
  0.117647E+00  0.113454E-01
  0.125490E+00  0.800677E-02
  0.133333E+00  0.568751E-02
  0.141176E+00  0.411519E-02
  0.149020E+00  0.306302E-02
  0.156863E+00  0.235535E-02
  0.164706E+00  0.186539E-02
  0.172549E+00  0.150852E-02
  0.180392E+00  0.123318E-02
  0.188235E+00  0.101121E-02
  0.196078E+00  0.829242E-03
  0.203922E+00  0.681796E-03
  0.211765E+00  0.566478E-03
  0.219608E+00  0.480963E-03
  0.227451E+00  0.421748E-03
  0.235294E+00  0.384012E-03
  0.243137E+00  0.362257E-03
  0.250980E+00  0.350985E-03
  0.258824E+00  0.345496E-03
  0.266667E+00  0.342268E-03
  0.274510E+00  0.339090E-03
  0.282353E+00  0.334881E-03
  0.290196E+00  0.329404E-03
  0.298039E+00  0.322838E-03
  0.305882E+00  0.315564E-03
  0.313725E+00  0.307922E-03
  0.321569E+00  0.300135E-03
  0.329412E+00  0.292322E-03
  0.337255E+00  0.284521E-03
  0.345098E+00  0.276738E-03
  0.352941E+00  0.268968E-03
  0.360784E+00  0.261222E-03
  0.368627E+00  0.253501E-03
  0.376471E+00  0.245848E-03
  0.384314E+00  0.238365E-03
  0.392157E+00  0.231207E-03
  0.400000E+00  0.224611E-03
  0.407843E+00  0.218867E-03
  0.415686E+00  0.214289E-03
  0.423529E+00  0.211154E-03
  0.431373E+00  0.209626E-03
  0.439216E+00  0.209711E-03
  0.447059E+00  0.211221E-03
  0.454902E+00  0.213774E-03
  0.462745E+00  0.216848E-03
  0.470588E+00  0.219844E-03
  0.478431E+00  0.222194E-03
  0.486275E+00  0.223435E-03
  0.494118E+00  0.223281E-03
  0.501961E+00  0.221666E-03
  0.509804E+00  0.218729E-03
  0.517647E+00  0.214802E-03
  0.525490E+00  0.210327E-03
  0.533333E+00  0.205817E-03
  0.541176E+00  0.201741E-03
  0.549020E+00  0.198475E-03
  0.556863E+00  0.196265E-03
  0.564706E+00  0.195190E-03
  0.572549E+00  0.195192E-03
  0.580392E+00  0.196079E-03
  0.588235E+00  0.197589E-03
  0.596078E+00  0.199407E-03
  0.603922E+00  0.201221E-03
  0.611765E+00  0.202747E-03
  0.619608E+00  0.203741E-03
  0.627451E+00  0.204014E-03
  0.635294E+00  0.203441E-03
  0.643137E+00  0.201960E-03
  0.650980E+00  0.199557E-03
  0.658824E+00  0.196290E-03
  0.666667E+00  0.192247E-03
  0.674510E+00  0.187558E-03
  0.682353E+00  0.182380E-03
  0.690196E+00  0.176866E-03
  0.698039E+00  0.171147E-03
  0.705882E+00  0.165340E-03
  0.713725E+00  0.159533E-03
  0.721569E+00  0.153787E-03
  0.729412E+00  0.148149E-03
  0.737255E+00  0.142653E-03
  0.745098E+00  0.137339E-03
  0.752941E+00  0.132261E-03
  0.760784E+00  0.127484E-03
  0.768627E+00  0.123066E-03
  0.776471E+00  0.119070E-03
  0.784314E+00  0.115539E-03
  0.792157E+00  0.112489E-03
  0.800000E+00  0.109906E-03
  0.807843E+00  0.107747E-03
  0.815686E+00  0.105943E-03
  0.823529E+00  0.104421E-03
  0.831373E+00  0.103093E-03
  0.839216E+00  0.101899E-03
  0.847059E+00  0.100789E-03
  0.854902E+00  0.997369E-04
  0.862745E+00  0.987369E-04
  0.870588E+00  0.977944E-04
  0.878431E+00  0.969136E-04
  0.886275E+00  0.960960E-04
  0.894118E+00  0.953237E-04
  0.901961E+00  0.945672E-04
  0.909804E+00  0.937752E-04
  0.917647E+00  0.928972E-04
  0.925490E+00  0.918859E-04
  0.933333E+00  0.907183E-04
  0.941176E+00  0.893862E-04
  0.949020E+00  0.879173E-04
  0.956863E+00  0.863619E-04
  0.964706E+00  0.847862E-04
  0.972549E+00  0.832603E-04
  0.980392E+00  0.818482E-04
  0.988235E+00  0.805979E-04
  0.996078E+00  0.795414E-04
  0.100392E+01  0.786828E-04
  0.101176E+01  0.780198E-04
  0.101961E+01  0.775372E-04
  0.102745E+01  0.772179E-04
  0.103529E+01  0.770472E-04
  0.104314E+01  0.770123E-04
  0.105098E+01  0.771049E-04
  0.105882E+01  0.773175E-04
  0.106667E+01  0.776401E-04
  0.107451E+01  0.780700E-04
  0.108235E+01  0.786028E-04
  0.109020E+01  0.792419E-04
  0.109804E+01  0.799983E-04
  0.110588E+01  0.808926E-04
  0.111373E+01  0.819496E-04
  0.112157E+01  0.831986E-04
  0.112941E+01  0.846665E-04
  0.113725E+01  0.863630E-04
  0.114510E+01  0.882824E-04
  0.115294E+01  0.903951E-04
  0.116078E+01  0.926482E-04
  0.116863E+01  0.949707E-04
  0.117647E+01  0.972860E-04
  0.118431E+01  0.995208E-04
  0.119216E+01  0.101622E-03
  0.120000E+01  0.103568E-03
  0.120784E+01  0.105366E-03
  0.121569E+01  0.107062E-03
  0.122353E+01  0.108722E-03
  0.123137E+01  0.110429E-03
  0.123922E+01  0.112253E-03
  0.124706E+01  0.114244E-03
  0.125490E+01  0.116419E-03
  0.126275E+01  0.118750E-03
  0.127059E+01  0.121168E-03
  0.127843E+01  0.123578E-03
  0.128627E+01  0.125868E-03
  0.129412E+01  0.127922E-03
  0.130196E+01  0.129651E-03
  0.130980E+01  0.130990E-03
  0.131765E+01  0.131919E-03
  0.132549E+01  0.132457E-03
  0.133333E+01  0.132660E-03
  0.134118E+01  0.132605E-03
  0.134902E+01  0.132376E-03
  0.135686E+01  0.132053E-03
  0.136471E+01  0.131615E-03
  0.137255E+01  0.131035E-03
  0.138039E+01  0.130329E-03
  0.138824E+01  0.129499E-03
  0.139608E+01  0.128533E-03
  0.140392E+01  0.127422E-03
  0.141176E+01  0.126160E-03
  0.141961E+01  0.124756E-03
  0.142745E+01  0.123234E-03
  0.143529E+01  0.121628E-03
  0.144314E+01  0.119987E-03
  0.145098E+01  0.118350E-03
  0.145882E+01  0.116756E-03
  0.146667E+01  0.115234E-03
  0.147451E+01  0.113793E-03
  0.148235E+01  0.112440E-03
  0.149020E+01  0.111172E-03
  0.149804E+01  0.109980E-03
  0.150588E+01  0.108852E-03
  0.151373E+01  0.107773E-03
  0.152157E+01  0.106722E-03
  0.152941E+01  0.105679E-03
  0.153725E+01  0.104613E-03
  0.154510E+01  0.103490E-03
  0.155294E+01  0.102278E-03
  0.156078E+01  0.100950E-03
  0.156863E+01  0.994964E-04
  0.157647E+01  0.979195E-04
  0.158431E+01  0.962477E-04
  0.159216E+01  0.945249E-04
  0.160000E+01  0.928100E-04
  0.160784E+01  0.911676E-04
  0.161569E+01  0.896601E-04
  0.162353E+01  0.883338E-04
  0.163137E+01  0.872179E-04
  0.163922E+01  0.863186E-04
  0.164706E+01  0.856135E-04
  0.165490E+01  0.850618E-04
  0.166275E+01  0.846048E-04
  0.167059E+01  0.841772E-04
  0.167843E+01  0.837130E-04
  0.168627E+01  0.831574E-04
  0.169412E+01  0.824679E-04
  0.170196E+01  0.816222E-04
  0.170980E+01  0.806151E-04
  0.171765E+01  0.794584E-04
  0.172549E+01  0.781741E-04
  0.173333E+01  0.767946E-04
  0.174118E+01  0.753566E-04
  0.174902E+01  0.738918E-04
  0.175686E+01  0.724324E-04
  0.176471E+01  0.709982E-04
  0.177255E+01  0.696053E-04
  0.178039E+01  0.682580E-04
  0.178824E+01  0.669552E-04
  0.179608E+01  0.656909E-04
  0.180392E+01  0.644570E-04
  0.181176E+01  0.632504E-04
  0.181961E+01  0.620699E-04
  0.182745E+01  0.609227E-04
  0.183529E+01  0.598239E-04
  0.184314E+01  0.587900E-04
  0.185098E+01  0.578386E-04
  0.185882E+01  0.569828E-04
  0.186667E+01  0.562298E-04
  0.187451E+01  0.555743E-04
  0.188235E+01  0.549980E-04
  0.189020E+01  0.544750E-04
  0.189804E+01  0.539709E-04
  0.190588E+01  0.534470E-04
  0.191373E+01  0.528698E-04
  0.192157E+01  0.522121E-04
  0.192941E+01  0.514600E-04
  0.193725E+01  0.506103E-04
  0.194510E+01  0.496791E-04
  0.195294E+01  0.486918E-04
  0.196078E+01  0.476844E-04
  0.196863E+01  0.466952E-04
  0.197647E+01  0.457599E-04
  0.198431E+01  0.449063E-04
  0.199216E+01  0.441476E-04
  0.200000E+01  0.434841E-04
