I_abs(s)[cm^-1]/c[mg/ml]
  0.000000E+00  0.189370E+00
  0.784314E-02  0.186973E+00
  0.156863E-01  0.180115E+00
  0.235294E-01  0.169125E+00
  0.313725E-01  0.154877E+00
  0.392157E-01  0.138272E+00
  0.470588E-01  0.120336E+00
  0.549020E-01  0.102067E+00
  0.627451E-01  0.843650E-01
  0.705882E-01  0.679532E-01
  0.784314E-01  0.533464E-01
  0.862745E-01  0.408392E-01
  0.941176E-01  0.305229E-01
  0.101961E+00  0.223178E-01
  0.109804E+00  0.160222E-01
  0.117647E+00  0.113581E-01
  0.125490E+00  0.801688E-02
  0.133333E+00  0.569522E-02
  0.141176E+00  0.412084E-02
  0.149020E+00  0.306705E-02
  0.156863E+00  0.235818E-02
  0.164706E+00  0.186740E-02
  0.172549E+00  0.151000E-02
  0.180392E+00  0.123431E-02
  0.188235E+00  0.101209E-02
  0.196078E+00  0.829933E-03
  0.203922E+00  0.682295E-03
  0.211765E+00  0.566777E-03
  0.219608E+00  0.481054E-03
  0.227451E+00  0.421635E-03
  0.235294E+00  0.383707E-03
  0.243137E+00  0.361785E-03
  0.250980E+00  0.350373E-03
  0.258824E+00  0.344768E-03
  0.266667E+00  0.341448E-03
  0.274510E+00  0.338193E-03
  0.282353E+00  0.333925E-03
  0.290196E+00  0.328402E-03
  0.298039E+00  0.321804E-03
  0.305882E+00  0.314520E-03
  0.313725E+00  0.306890E-03
  0.321569E+00  0.299141E-03
  0.329412E+00  0.291391E-03
  0.337255E+00  0.283671E-03
  0.345098E+00  0.275989E-03
  0.352941E+00  0.268325E-03
  0.360784E+00  0.260686E-03
  0.368627E+00  0.253071E-03
  0.376471E+00  0.245516E-03
  0.384314E+00  0.238125E-03
  0.392157E+00  0.231048E-03
  0.400000E+00  0.224525E-03
  0.407843E+00  0.218845E-03
  0.415686E+00  0.214324E-03
  0.423529E+00  0.211239E-03
  0.431373E+00  0.209751E-03
  0.439216E+00  0.209866E-03
  0.447059E+00  0.211401E-03
  0.454902E+00  0.213971E-03
  0.462745E+00  0.217049E-03
  0.470588E+00  0.220043E-03
  0.478431E+00  0.222383E-03
  0.486275E+00  0.223603E-03
  0.494118E+00  0.223419E-03
  0.501961E+00  0.221767E-03
  0.509804E+00  0.218788E-03
  0.517647E+00  0.214811E-03
  0.525490E+00  0.210285E-03
  0.533333E+00  0.205728E-03
  0.541176E+00  0.201608E-03
  0.549020E+00  0.198309E-03
  0.556863E+00  0.196075E-03
  0.564706E+00  0.194991E-03
  0.572549E+00  0.194999E-03
  0.580392E+00  0.195905E-03
  0.588235E+00  0.197446E-03
  0.596078E+00  0.199307E-03
  0.603922E+00  0.201169E-03
  0.611765E+00  0.202746E-03
  0.619608E+00  0.203793E-03
  0.627451E+00  0.204116E-03
  0.635294E+00  0.203589E-03
  0.643137E+00  0.202143E-03
  0.650980E+00  0.199768E-03
  0.658824E+00  0.196517E-03
  0.666667E+00  0.192479E-03
  0.674510E+00  0.187785E-03
  0.682353E+00  0.182589E-03
  0.690196E+00  0.177048E-03
  0.698039E+00  0.171291E-03
  0.705882E+00  0.165440E-03
  0.713725E+00  0.159585E-03
  0.721569E+00  0.153790E-03
  0.729412E+00  0.148101E-03
  0.737255E+00  0.142558E-03
  0.745098E+00  0.137200E-03
  0.752941E+00  0.132086E-03
  0.760784E+00  0.127278E-03
  0.768627E+00  0.122838E-03
  0.776471E+00  0.118831E-03
  0.784314E+00  0.115293E-03
  0.792157E+00  0.112247E-03
  0.800000E+00  0.109674E-03
  0.807843E+00  0.107531E-03
  0.815686E+00  0.105748E-03
  0.823529E+00  0.104251E-03
  0.831373E+00  0.102952E-03
  0.839216E+00  0.101786E-03
  0.847059E+00  0.100705E-03
  0.854902E+00  0.996818E-04
  0.862745E+00  0.987073E-04
  0.870588E+00  0.977863E-04
  0.878431E+00  0.969223E-04
  0.886275E+00  0.961173E-04
  0.894118E+00  0.953526E-04
  0.901961E+00  0.945990E-04
  0.909804E+00  0.938075E-04
  0.917647E+00  0.929296E-04
  0.925490E+00  0.919186E-04
  0.933333E+00  0.907533E-04
  0.941176E+00  0.894251E-04
  0.949020E+00  0.879633E-04
  0.956863E+00  0.864176E-04
  0.964706E+00  0.848539E-04
  0.972549E+00  0.833425E-04
  0.980392E+00  0.819457E-04
  0.988235E+00  0.807106E-04
  0.996078E+00  0.796686E-04
  0.100392E+01  0.788236E-04
  0.101176E+01  0.781719E-04
  0.101961E+01  0.776966E-04
  0.102745E+01  0.773821E-04
  0.103529E+01  0.772120E-04
  0.104314E+01  0.771739E-04
  0.105098E+01  0.772606E-04
  0.105882E+01  0.774643E-04
  0.106667E+01  0.777773E-04
  0.107451E+01  0.781971E-04
  0.108235E+01  0.787200E-04
  0.109020E+01  0.793500E-04
  0.109804E+01  0.800989E-04
  0.110588E+01  0.809866E-04
  0.111373E+01  0.820387E-04
  0.112157E+01  0.832850E-04
  0.112941E+01  0.847515E-04
  0.113725E+01  0.864490E-04
  0.114510E+01  0.883703E-04
  0.115294E+01  0.904853E-04
  0.116078E+01  0.927407E-04
  0.116863E+01  0.950638E-04
  0.117647E+01  0.973770E-04
  0.118431E+01  0.996050E-04
  0.119216E+01  0.101692E-03
  0.120000E+01  0.103615E-03
  0.120784E+01  0.105383E-03
  0.121569E+01  0.107040E-03
  0.122353E+01  0.108653E-03
  0.123137E+01  0.110306E-03
  0.123922E+01  0.112073E-03
  0.124706E+01  0.114009E-03
  0.125490E+01  0.116133E-03
  0.126275E+01  0.118419E-03
  0.127059E+01  0.120804E-03
  0.127843E+01  0.123194E-03
  0.128627E+01  0.125476E-03
  0.129412E+01  0.127537E-03
  0.130196E+01  0.129285E-03
  0.130980E+01  0.130653E-03
  0.131765E+01  0.131618E-03
  0.132549E+01  0.132197E-03
  0.133333E+01  0.132443E-03
  0.134118E+01  0.132434E-03
  0.134902E+01  0.132248E-03
  0.135686E+01  0.131966E-03
  0.136471E+01  0.131570E-03
  0.137255E+01  0.131033E-03
  0.138039E+01  0.130371E-03
  0.138824E+01  0.129582E-03
  0.139608E+01  0.128655E-03
  0.140392E+01  0.127576E-03
  0.141176E+01  0.126343E-03
  0.141961E+01  0.124956E-03
  0.142745E+01  0.123444E-03
  0.143529E+01  0.121837E-03
  0.144314E+01  0.120183E-03
  0.145098E+01  0.118525E-03
  0.145882E+01  0.116903E-03
  0.146667E+01  0.115346E-03
  0.147451E+01  0.113869E-03
  0.148235E+01  0.112479E-03
  0.149020E+01  0.111174E-03
  0.149804E+01  0.109949E-03
  0.150588E+01  0.108792E-03
  0.151373E+01  0.107690E-03
  0.152157E+01  0.106625E-03
  0.152941E+01  0.105574E-03
  0.153725E+01  0.104510E-03
  0.154510E+01  0.103396E-03
  0.155294E+01  0.102202E-03
  0.156078E+01  0.100902E-03
  0.156863E+01  0.994802E-04
  0.157647E+01  0.979413E-04
  0.158431E+01  0.963078E-04
  0.159216E+01  0.946220E-04
  0.160000E+01  0.929388E-04
  0.160784E+01  0.913213E-04
  0.161569E+01  0.898305E-04
  0.162353E+01  0.885123E-04
  0.163137E+01  0.873967E-04
  0.163922E+01  0.864925E-04
  0.164706E+01  0.857798E-04
  0.165490E+01  0.852217E-04
  0.166275E+01  0.847627E-04
  0.167059E+01  0.843402E-04
  0.167843E+01  0.838898E-04
  0.168627E+01  0.833578E-04
  0.169412E+01  0.827020E-04
  0.170196E+01  0.818966E-04
  0.170980E+01  0.809357E-04
  0.171765E+01  0.798281E-04
  0.172549E+01  0.785928E-04
  0.173333E+01  0.772583E-04
  0.174118E+01  0.758587E-04
  0.174902E+01  0.744253E-04
  0.175686E+01  0.729865E-04
  0.176471E+01  0.715632E-04
  0.177255E+01  0.701700E-04
  0.178039E+01  0.688109E-04
  0.178824E+01  0.674866E-04
  0.179608E+01  0.661899E-04
  0.180392E+01  0.649159E-04
  0.181176E+01  0.636617E-04
  0.181961E+01  0.624285E-04
  0.182745E+01  0.612243E-04
  0.183529E+01  0.600671E-04
  0.184314E+01  0.589759E-04
  0.185098E+01  0.579698E-04
  0.185882E+01  0.570649E-04
  0.186667E+01  0.562689E-04
  0.187451E+01  0.555776E-04
  0.188235E+01  0.549740E-04
  0.189020E+01  0.544317E-04
  0.189804E+01  0.539151E-04
  0.190588E+01  0.533846E-04
  0.191373E+01  0.528060E-04
  0.192157E+01  0.521495E-04
  0.192941E+01  0.513998E-04
  0.193725E+01  0.505525E-04
  0.194510E+01  0.496222E-04
  0.195294E+01  0.486335E-04
  0.196078E+01  0.476224E-04
  0.196863E+01  0.466270E-04
  0.197647E+01  0.456834E-04
  0.198431E+01  0.448207E-04
  0.199216E+01  0.440529E-04
  0.200000E+01  0.433817E-04
